Time,phi,theta,psi,p,q,r,phi_dot,theta_dot,psi_dot,V_NED_x,V_NED_y,V_NED_z,Pos_NED_x,Pos_NED_y,Pos_NED_z
0.000000,0.000000,0.716197,0.000000,900.000000,57.295780,0.000000,0.000000,57.295780,0.000000,101.260689,0.000000,-1.242046,1.265759,0.000000,-0.015526
0.012500,0.004806,1.432181,0.255934,900.000000,57.279453,20.468851,0.384511,57.278690,20.474717,101.236763,0.674679,-2.351533,2.531218,0.008433,-0.044920
0.025000,0.020762,2.147453,0.764418,900.000000,57.230483,40.646402,1.276430,57.221795,40.678743,101.194169,1.946787,-3.122280,3.796145,0.032768,-0.083948
0.037500,0.054021,2.861334,1.518668,900.000000,57.148896,60.245499,2.660749,57.110424,60.339995,101.127364,3.681473,-3.380205,5.060237,0.078787,-0.126201
0.050000,0.110427,3.572869,2.508583,900.000000,57.034741,78.987219,4.512439,56.922836,79.193221,101.028604,5.698319,-2.998715,6.323095,0.150016,-0.163685
0.062500,0.195381,4.280774,3.720874,900.000000,56.888080,96.604841,6.796379,56.632389,96.983274,100.889016,7.787454,-1.909960,7.584208,0.247359,-0.187559
0.075000,0.313724,4.983403,5.139227,900.000000,56.709000,112.847643,9.467410,56.210349,113.468202,100.699943,9.728327,-0.110925,8.842957,0.368963,-0.188946
0.087500,0.469607,5.678768,6.744504,900.000000,56.497600,127.484468,12.470608,55.629138,128.422157,100.454391,11.309398,2.336276,10.098637,0.510330,-0.159742
0.100000,0.666380,6.364590,8.514980,900.000000,56.254002,140.307012,15.741897,54.865779,141.638110,100.148417,12.346967,5.310049,11.350492,0.664668,-0.093367
0.112500,0.906494,7.038406,10.426611,900.000000,55.978345,151.132794,19.209098,53.905263,152.930447,99.782266,12.701399,8.640501,12.597770,0.823435,0.014640
0.125000,1.191412,7.697700,12.453329,900.000000,55.670785,159.807747,22.793474,52.743568,162.137466,99.361091,12.289234,12.125143,13.839784,0.977050,0.166204
0.137500,1.521560,8.340075,14.567377,900.000000,55.331499,166.208415,26.411788,51.390019,169.123816,98.895142,11.090002,15.547591,15.075973,1.115675,0.360549
0.150000,1.896295,8.963435,16.739663,900.000000,54.960679,170.243708,29.978838,49.868767,173.782881,98.399336,9.147048,18.697412,16.305965,1.230014,0.594266
0.162500,2.313925,9.566175,18.940151,900.000000,54.558536,171.856197,33.410351,48.219183,176.039062,97.892224,6.562249,21.389111,17.529618,1.312042,0.861630
0.175000,2.771751,10.147363,21.138274,900.000000,54.125300,171.022936,36.626072,46.495058,175.849866,97.394404,3.485153,23.478337,18.747048,1.355606,1.155109
0.187500,3.266161,10.706896,23.303370,900.000000,53.661218,167.755781,39.552821,44.762619,173.207649,96.926546,0.097683,24.873718,19.958630,1.356827,1.466031
0.200000,3.792752,11.245614,25.405131,900.000000,53.166554,162.101231,42.127280,43.097445,168.140847,96.507202,-3.403948,25.543178,21.164970,1.314278,1.785321
0.212500,4.346480,11.765370,27.414062,900.000000,52.641591,154.139755,44.298256,41.580510,160.714506,96.150649,-6.828193,25.514196,22.366853,1.228925,2.104248
0.225000,4.921833,12.269040,29.301937,900.000000,52.086626,143.984658,46.028222,40.293627,151.029969,95.865016,-10.006020,24.868114,23.565165,1.103850,2.415099
0.237500,5.513008,12.760474,31.042232,900.000000,51.501978,131.780461,47.294021,39.314657,139.223610,95.650914,-12.805849,23.729264,24.760802,0.943777,2.711715
0.250000,6.114092,13.244384,32.610539,900.000000,50.887978,117.700845,48.086677,38.712842,125.464609,95.500777,-15.144139,22.250178,25.954562,0.754475,2.989843
0.262500,6.719222,13.726192,33.984937,900.000000,50.244976,101.946184,48.410423,38.544589,109.951822,95.399018,-16.990693,20.594542,27.147049,0.542092,3.247274
0.275000,7.322736,14.211817,35.146311,900.000000,49.573340,84.740687,48.281115,38.850001,92.909894,95.323059,-18.368299,18.919694,28.338588,0.312488,3.483770
0.287500,7.919289,14.707446,36.078621,900.000000,48.873452,66.329214,47.724298,39.650355,74.584800,95.245164,-19.346932,17.360429,29.529152,0.070651,3.700776
0.300000,8.503955,15.219279,36.769109,900.000000,48.145711,46.973784,46.773216,40.946622,55.239060,95.134958,-20.033285,16.015665,30.718339,-0.179765,3.900972
0.312500,9.072293,15.753267,37.208445,900.000000,47.390531,26.949853,45.467089,42.719082,35.146843,94.962401,-20.556829,14.939210,31.905369,-0.436725,4.087712
0.325000,9.620417,16.314867,37.390809,900.000000,46.608343,6.542387,43.849896,44.927966,14.589193,94.700952,-21.053888,14.135468,33.089131,-0.699899,4.264405
0.337500,10.145040,16.908805,37.313929,900.000000,45.799593,-13.958185,41.969870,47.515054,-6.150444,94.330630,-21.651355,13.560438,34.268264,-0.970541,4.433911
0.350000,10.643538,17.538881,36.979051,900.000000,44.964741,-34.260113,39.879807,50.406093,-26.790242,93.840664,-22.451626,13.127871,35.441272,-1.251186,4.598009
0.362500,11.114016,18.207805,36.390883,900.000000,44.104264,-54.074473,37.638224,53.513916,-47.053453,93.231453,-23.520217,12.719941,36.606665,-1.545189,4.757008
0.375000,11.555407,18.917082,35.557492,900.000000,43.218651,-73.119278,35.311292,56.742109,-66.671248,92.515618,-24.877265,12.201326,37.763111,-1.856155,4.909525
0.387500,11.967600,19.666945,34.490181,900.000000,42.308408,-91.123494,32.975457,59.989105,-85.384923,91.717976,-26.493816,11.435262,38.909585,-2.187327,5.052466
0.400000,12.351608,20.456352,33.203337,900.000000,41.374054,-107.830898,30.720594,63.152526,-102.947499,90.874378,-28.293376,10.299945,40.045515,-2.540994,5.181215
0.412500,12.709777,21.283022,31.714277,900.000000,40.416120,-123.003719,28.653560,66.133616,-119.124816,90.029418,-30.158691,8.703596,41.170883,-2.917978,5.290010
0.425000,13.046052,22.143542,30.043074,900.000000,39.435152,-136.426027,26.901995,68.841562,-133.696245,89.233161,-31.943199,6.596636,42.286297,-3.317268,5.372468
0.437500,13.366281,23.033510,28.212383,900.000000,38.431711,-147.906804,25.618287,71.197445,-146.455223,88.537108,-33.486019,3.979648,43.393011,-3.735843,5.422213
0.450000,13.678576,23.947729,26.247261,900.000000,37.406367,-157.282662,24.983624,73.137560,-157.209801,87.989713,-34.628951,0.906201,44.492882,-4.168705,5.433541
0.462500,13.993728,24.880426,24.174968,900.000000,36.359705,-164.420172,25.212135,74.615778,-165.783458,87.631855,-35.233660,-2.519919,45.588281,-4.609126,5.402042
0.475000,14.325667,25.825484,22.024763,900.000000,35.292321,-169.217755,26.555144,75.604615,-172.016359,87.492692,-35.197189,-6.152922,46.681939,-5.049091,5.325130
0.487500,14.691987,26.776667,19.827673,900.000000,34.204824,-171.607135,29.305622,76.094665,-175.767233,87.586334,-34.464094,-9.817921,47.776768,-5.479892,5.202406
0.500000,15.114523,27.727818,17.616223,900.000000,33.097834,-171.554309,33.802911,76.092076,-176.915940,87.909739,-33.033852,-13.327241,48.875640,-5.892815,5.035816
0.512500,15.619995,28.672991,15.424139,900.000000,31.971981,-169.060029,40.437746,75.613773,-175.366753,88.442120,-30.962708,-16.498407,49.981167,-6.279849,4.829586
0.525000,16.240713,29.606493,13.285985,900.000000,30.827907,-164.159790,49.657399,74.680223,-171.052345,89.146033,-28.359699,-19.171923,51.095492,-6.634345,4.589937
0.537500,17.015342,30.522814,11.236753,900.000000,29.666264,-156.923331,61.970317,73.305628,-163.938527,89.970114,-25.377272,-21.226930,52.220119,-6.951561,4.324600
0.550000,17.989701,31.416383,9.311378,900.000000,28.487714,-147.453635,77.948748,71.485554,-154.030000,90.853264,-22.197446,-22.593119,53.355784,-7.229029,4.042186
0.562500,19.217529,32.281161,7.544155,900.000000,27.292929,-135.885471,98.226198,69.182241,-141.377813,91.729885,-19.014951,-23.257657,54.502408,-7.466716,3.751465
0.575000,20.761077,33.110013,5.968031,900.000000,26.082590,-122.383469,123.483877,66.308163,-126.089919,92.535669,-16.019061,-23.266437,55.659104,-7.666954,3.460635
0.587500,22.691277,33.893876,4.613692,900.000000,24.857385,-107.139781,154.416019,62.709014,-108.347148,93.213345,-13.375896,-22.719553,56.824271,-7.834153,3.176641
0.600000,25.087004,34.620731,3.508343,900.000000,23.618015,-90.371346,191.658103,58.148422,-88.427927,93.717820,-11.212916,-21.761541,57.995743,-7.974315,2.904621
0.612500,28.032697,35.274464,2.674024,900.000000,22.365185,-72.316802,235.655452,52.298658,-66.745546,94.020219,-9.607081,-20.567385,59.170996,-8.094403,2.647529
0.625000,31.613274,35.833773,2.125269,900.000000,21.099608,-53.233090,286.446198,44.744682,-43.900394,94.110446,-8.577797,-19.325717,60.347377,-8.201625,2.405958
0.637500,35.905042,36.271434,1.865970,900.000000,19.822007,-33.391797,343.341447,35.012888,-20.743904,93.998062,-8.085351,-18.220824,61.522352,-8.302692,2.178197
0.650000,40.961584,36.554422,1.885499,900.000000,18.533109,-13.075293,404.523355,22.639008,1.562311,93.711420,-8.035000,-17.415100,62.693745,-8.403130,1.960508
0.662500,46.794922,36.645507,2.154632,900.000000,17.233649,7.427290,466.666992,7.286840,21.530612,93.295161,-8.286352,-17.033506,63.859935,-8.506709,1.747590
0.675000,53.355140,36.506914,2.622580,900.000000,15.924367,27.824173,524.817503,-11.087462,37.435841,92.806293,-8.667158,-17.151423,65.020013,-8.615049,1.533197
0.687500,60.515636,36.106072,3.217159,900.000000,14.606011,47.825080,572.839616,-32.067319,47.566360,92.309184,-8.990175,-17.787006,66.173878,-8.727426,1.310859
0.700000,68.073555,35.422463,3.850053,900.000000,13.279330,67.145369,604.633579,-54.688776,50.631554,91.869887,-9.071542,-18.898837,67.322252,-8.840820,1.074624
0.712500,75.771912,34.453378,4.427488,900.000000,11.945081,85.510087,615.868541,-77.526733,46.194741,91.550219,-8.748934,-20.389236,68.466629,-8.950182,0.819758
0.725000,83.340021,33.216194,4.863801,900.000000,10.604024,102.657879,605.448719,-98.974782,34.905089,91.402116,-7.897837,-22.113067,69.609156,-9.048905,0.543345
0.737500,90.538234,31.746008,5.093365,900.000000,9.256925,118.344707,575.856996,-117.614868,18.365109,91.462719,-6.444412,-23.891341,70.752440,-9.129460,0.244703
0.750000,97.190389,30.089713,5.076952,900.000000,7.904549,132.347326,532.172403,-132.503571,-1.313035,91.750660,-4.373697,-25.528362,71.899323,-9.184131,-0.074401
0.762500,103.195271,28.298952,4.801617,900.000000,6.547669,144.466460,480.390612,-143.260883,-22.026851,92.263954,-1.732261,-26.830769,73.052623,-9.205784,-0.409786
0.775000,108.519442,26.424251,4.275963,900.000000,5.187058,154.529637,425.933650,-149.976099,-42.052328,92.979761,1.375106,-27.626591,74.214870,-9.188596,-0.755118
0.787500,113.180024,24.511396,3.523659,900.000000,3.823490,162.393643,372.846573,-153.028355,-60.184310,93.856159,4.794482,-27.782408,75.388072,-9.128665,-1.102398
0.800000,117.225785,22.599951,2.577381,900.000000,2.457743,167.946564,323.660843,-152.915620,-75.702242,94.835842,8.336900,-27.216865,76.573520,-9.024453,-1.442609
0.812500,120.721384,20.723230,1.474183,900.000000,1.090595,171.109373,279.647980,-150.137737,-88.255850,95.851452,11.796072,-25.909161,77.771663,-8.877003,-1.766474
0.825000,123.736338,18.909021,0.252409,900.000000,-0.277174,171.837059,241.196328,-145.136663,-97.741913,96.832028,14.967969,-23.901597,78.982063,-8.689903,-2.065244
0.837500,126.338290,17.180549,-1.050160,900.000000,-1.644785,170.119266,208.156089,-138.277817,-104.205523,97.709925,17.670249,-21.295897,80.203437,-8.469025,-2.331442
0.850000,128.589506,15.557369,-2.397321,900.000000,-3.011458,165.980441,180.097313,-129.854393,-107.772884,98.427441,19.759554,-18.243655,81.433780,-8.222030,-2.559488
0.862500,130.545510,14.056101,-3.754956,900.000000,-4.376416,159.479485,156.480358,-120.101406,-108.610738,98.942435,21.144914,-14.931898,82.670561,-7.957719,-2.746137
0.875000,132.254988,12.690953,-5.091262,900.000000,-5.738879,150.708916,136.758245,-109.211817,-106.904501,99.232316,21.795927,-11.565265,83.910965,-7.685270,-2.890703
0.887500,133.760393,11.474064,-6.376863,900.000000,-7.098072,139.793550,120.432369,-97.351123,-102.848044,99.295975,21.744923,-8.346627,85.152164,-7.413458,-2.995035
0.900000,135.098875,10.415699,-7.584862,900.000000,-8.453219,126.888730,107.078556,-84.669208,-96.639974,99.153480,21.082988,-5.458083,86.391583,-7.149921,-3.063261
0.912500,136.303314,9.524331,-8.690899,900.000000,-9.803549,112.178107,96.355081,-71.309429,-88.482932,98.843568,19.950331,-3.044171,87.627127,-6.900542,-3.101314
0.925000,137.403312,8.806639,-9.673196,900.000000,-11.148292,95.871035,87.999892,-57.415398,-78.583777,98.419234,18.522075,-1.198880,88.857368,-6.669016,-3.116300
0.937500,138.426079,8.267439,-10.512614,900.000000,-12.486681,78.199585,81.821311,-43.135998,-67.153425,97.941852,16.990974,0.042368,90.081641,-6.456629,-3.115770
0.950000,139.397137,7.909576,-11.192686,900.000000,-13.817955,59.415248,77.684657,-28.629049,-54.405769,97.474430,15.548759,0.705050,91.300071,-6.262269,-3.106957
0.962500,140.340839,7.733777,-11.699631,900.000000,-15.141353,39.785349,75.496196,-14.063893,-40.555612,97.074635,14.367901,0.872039,92.513504,-6.082670,-3.096056
0.975000,141.280657,7.738491,-12.022330,900.000000,-16.456122,19.589250,75.185414,0.377110,-25.815902,96.788274,13.585387,0.674685,93.723358,-5.912853,-3.087623
0.987500,142.239238,7.919720,-12.152265,900.000000,-17.761513,-0.885631,76.686454,14.498292,-10.394836,96.643836,13.289954,0.279402,94.931406,-5.746729,-3.084130
1.000000,143.238233,8.270868,-12.083435,900.000000,-19.056781,-21.347909,79.919599,28.091889,5.506444,96.648692,13.513869,-0.128896,96.139514,-5.577805,-3.085742
1.012500,144.297905,8.782632,-11.812249,900.000000,-20.341189,-41.506376,84.773815,40.941070,21.694843,96.787339,14.229999,-0.364914,97.349356,-5.399930,-3.090303
1.025000,145.436549,9.442945,-11.337444,900.000000,-21.614004,-61.074150,91.091472,52.825097,37.984388,97.021992,15.354481,-0.260982,98.562131,-5.207999,-3.093565
1.037500,146.669754,10.237030,-10.660031,900.000000,-22.874502,-79.772755,98.656429,63.526779,54.193084,97.295532,16.754800,0.316678,99.778325,-4.998564,-3.089607
1.050000,148.009588,11.147558,-9.783310,900.000000,-24.121963,-97.336083,107.186743,72.842204,70.137667,97.536655,18.262551,1.454871,100.997533,-4.770282,-3.071421
1.062500,149.463753,12.154963,-8.712974,900.000000,-25.355676,-113.514184,116.333209,80.592438,85.626884,97.666733,19.689688,3.184739,102.218367,-4.524161,-3.031612
1.075000,151.034814,13.237919,-7.457294,900.000000,-26.574940,-128.076822,125.684847,86.636509,100.454425,97.607762,20.846700,5.478308,103.438464,-4.263578,-2.963133
1.087500,152.719591,14.373977,-6.027380,900.000000,-27.779058,-140.816749,134.782143,90.884623,114.393070,97.290539,21.560924,8.250701,104.654596,-3.994066,-2.859999
1.100000,154.508819,15.540354,-4.437483,900.000000,-28.967345,-151.552660,143.138251,93.310109,127.191793,96.662205,21.693222,11.367901,105.862874,-3.722901,-2.717900
1.112500,156.387161,16.714833,-2.705265,900.000000,-30.139124,-160.131766,150.267367,93.958352,138.577432,95.692275,21.151344,14.659375,107.059027,-3.458509,-2.534658
1.125000,158.333638,17.876719,-0.851990,900.000000,-31.293725,-166.431977,155.718135,92.950866,148.261978,94.376479,19.898669,17.934325,108.238733,-3.209776,-2.310479
1.137500,160.322494,19.007756,1.097454,900.000000,-32.430493,-170.363630,159.108471,90.482968,155.955531,92.737910,17.957415,20.999912,109.397957,-2.985308,-2.047980
1.150000,162.324456,20.092934,3.114751,900.000000,-33.548778,-171.870774,160.157015,86.814265,161.383769,90.825325,15.405986,23.679537,110.533274,-2.792733,-1.751986
1.162500,164.308283,21.121087,5.168596,900.000000,-34.647944,-170.931959,158.706150,82.252205,164.307580,88.708696,12.370725,25.829274,111.642132,-2.638099,-1.429120
1.175000,166.242439,22.085215,7.225368,900.000000,-35.727363,-167.560546,154.732452,77.130249,164.541780,86.472461,9.012969,27.350751,112.723038,-2.525437,-1.087236
1.187500,168.096721,22.982505,9.249990,900.000000,-36.786422,-161.804515,148.342614,71.783214,161.969800,84.207113,5.512798,28.199164,113.775627,-2.456527,-0.734746
1.200000,169.843668,23.814042,11.206891,900.000000,-37.824515,-153.745782,139.755755,66.522921,156.552076,82.000019,2.051241,28.385654,114.800627,-2.430886,-0.379925
1.212500,171.459614,24.584256,13.060981,900.000000,-38.841052,-143.499034,129.275681,61.617135,148.327193,79.926399,-1.207185,27.973919,115.799707,-2.445976,-0.030251
1.225000,172.925344,25.300181,14.778561,900.000000,-39.835454,-131.210097,117.258359,57.274057,137.406389,78.041460,-4.129785,27.071524,116.775225,-2.497599,0.308143
1.237500,174.226345,25.970600,16.328101,900.000000,-40.807153,-117.053859,104.080103,53.633499,123.963188,76.374569,-6.627310,25.816972,117.729908,-2.580440,0.630855
1.250000,175.352732,26.605160,17.680858,900.000000,-41.755596,-101.231783,90.110913,50.764771,108.220547,74.926184,-8.660771,24.363979,118.666485,-2.688700,0.935405
1.262500,176.298927,27.213540,18.811330,900.000000,-42.680242,-83.969038,75.695593,48.670421,90.437801,73.667972,-10.242842,22.864646,119.587334,-2.816735,1.221213
1.275000,177.063218,27.804721,19.697570,900.000000,-43.580565,-65.511298,61.143297,47.294468,70.899202,72.546221,-11.433824,21.453261,120.494162,-2.959658,1.489378
1.287500,177.647275,28.386392,20.321384,900.000000,-44.456051,-46.121242,46.724576,46.533685,49.905093,71.488251,-12.332695,20.232320,121.387765,-3.113817,1.742282
1.300000,178.055700,28.964524,20.668459,900.000000,-45.306201,-26.074817,32.674014,46.250588,27.766013,70.411187,-13.064271,19.262133,122.267905,-3.277120,1.983059
1.312500,178.295652,29.543113,20.728453,900.000000,-46.130531,-5.657311,19.196166,46.287090,4.799498,69.232157,-13.763840,18.555006,123.133307,-3.449168,2.214997
1.325000,178.376560,30.124088,20.495065,900.000000,-46.928571,14.840706,6.472598,46.478030,-18.671079,67.878825,-14.560866,18.074591,123.981792,-3.631179,2.440929
1.337500,178.309912,30.707388,19.966109,900.000000,-47.699866,35.127520,-5.331797,46.663991,-42.316477,66.299093,-15.563351,17.740469,124.810531,-3.825721,2.662685
1.350000,178.109106,31.291175,19.143593,900.000000,-48.443976,54.914420,-16.064513,46.702938,-65.801279,64.468937,-16.844422,17.437564,125.616393,-4.036276,2.880654
1.362500,177.789307,31.872178,18.033790,900.000000,-49.160479,73.919812,-25.583913,46.480215,-88.784221,62.397493,-18.432462,17.029445,126.396362,-4.266682,3.093523
1.375000,177.367299,32.446133,16.647291,900.000000,-49.848964,91.873223,-33.760623,45.916462,-110.919897,60.128802,-20.305844,16.374204,127.147972,-4.520505,3.298200
1.387500,176.861281,33.008296,14.999011,900.000000,-50.509040,108.519152,-40.481470,44.972971,-131.862400,57.739934,-22.392943,15.341300,127.869721,-4.800417,3.489966
1.400000,176.290591,33.553972,13.108122,900.000000,-51.140331,123.620703,-45.655147,43.654079,-151.271121,55.335543,-24.577588,13.827654,128.561415,-5.107636,3.662812
1.412500,175.675361,34.079051,10.997891,900.000000,-51.742477,136.962960,-49.218427,42.006333,-168.818519,53.039251,-26.709583,11.771322,129.224406,-5.441506,3.809954
1.425000,175.036090,34.580480,8.695399,900.000000,-52.315135,148.356045,-51.141681,40.114369,-184.199304,50.982567,-28.619352,9.161268,129.861688,-5.799248,3.924469
1.437500,174.393183,35.056653,6.231148,900.000000,-52.857978,157.637819,-51.432522,38.093780,-197.140079,49.292297,-30.135249,6.042097,130.477841,-6.175939,3.999996
1.450000,173.766474,35.507672,3.638544,900.000000,-53.370697,164.676189,-50.136730,36.081530,-207.408330,48.077609,-31.101749,2.513075,131.078812,-6.564711,4.031409
1.462500,173.174773,35.935481,0.953299,900.000000,-53.853000,169.370989,-47.336136,34.224741,-214.819606,47.418024,-31.396591,-1.278667,131.671537,-6.957168,4.015426
1.475000,172.635476,36.343842,-1.787226,900.000000,-54.304611,171.655406,-43.143699,32.668867,-219.242031,47.353626,-30.945028,-5.150192,132.263457,-7.343981,3.951048
1.487500,172.164270,36.738170,-4.544697,900.000000,-54.725275,171.496929,-37.696499,31.546248,-220.597653,47.878649,-29.729600,-8.898944,132.861940,-7.715601,3.839811
1.500000,171.774924,37.125244,-7.280455,900.000000,-55.114750,168.897814,-31.147708,30.965963,-218.860659,48.939347,-27.794352,-12.321441,133.473682,-8.063030,3.685793
1.512500,171.479190,37.512815,-9.956117,900.000000,-55.472815,163.895050,-23.658717,31.005662,-214.052947,50.436648,-25.242951,-15.232533,134.104140,-8.378567,3.495387
