Time,phi,theta,psi,p,q,r,phi_dot,theta_dot,psi_dot,V_NED_x,V_NED_y,V_NED_z,Pos_NED_x,Pos_NED_y,Pos_NED_z
0.000000,0.000000,1.432394,0.000000,900.000000,57.295780,0.000000,0.000000,57.295780,0.000000,101.236968,0.000000,-2.355886,2.530924,0.000000,-0.058897
0.025000,0.038392,2.862855,1.017326,900.000000,57.230483,40.646402,1.535668,57.218408,40.693043,101.139071,2.415767,-3.771238,5.059401,0.060394,-0.153178
0.050000,0.164230,4.285382,2.998319,900.000000,57.034741,78.987219,5.033543,56.901104,79.239734,100.934970,6.219441,-3.015017,7.582775,0.215880,-0.228554
0.075000,0.420475,5.689027,5.837365,900.000000,56.709000,112.847643,10.249780,56.145777,113.561830,100.552278,9.880595,0.372013,10.096582,0.462895,-0.219253
0.100000,0.839972,7.057266,9.382081,900.000000,56.254002,140.307012,16.779888,54.729568,141.788629,99.922168,11.880116,5.928680,12.594636,0.759898,-0.071036
0.125000,1.441845,8.369997,13.440771,900.000000,55.670785,159.807747,24.074937,52.509228,162.347615,99.022415,11.213900,12.437131,15.070197,1.040245,0.239892
0.150000,2.228968,9.607975,17.791959,900.000000,54.960679,170.243708,31.484908,49.519125,174.047505,97.906666,7.715479,18.349468,17.517863,1.233132,0.698629
0.175000,3.187295,10.758688,22.195883,900.000000,54.125300,171.022936,38.333061,46.028518,176.156955,96.701928,2.083545,22.321715,19.935412,1.285221,1.256672
0.200000,4.287574,11.821996,26.407751,900.000000,53.166554,162.101231,44.011159,42.532342,168.474718,95.567926,-4.398079,23.655983,22.324610,1.175269,1.848071
0.225000,5.489360,12.813742,30.192150,900.000000,52.086626,143.984658,48.071474,39.669814,151.375967,94.628890,-10.338930,22.489905,24.690332,0.916796,2.410319
0.250000,6.746524,13.766000,33.337499,900.000000,50.887978,117.700845,50.286555,38.090351,125.813956,93.903988,-14.730705,19.671986,27.037932,0.548528,2.902119
0.275000,8.012975,14.723634,35.669079,900.000000,49.573340,84.740687,50.658026,38.305333,93.263219,93.269631,-17.262702,16.385192,29.369672,0.116961,3.311748
0.300000,9.247434,15.737831,37.059271,900.000000,48.145711,46.973784,49.378358,40.567904,55.607674,92.479416,-18.355818,13.674137,31.681658,-0.341935,3.653602
0.325000,10.416743,16.858090,37.434123,900.000000,46.608343,6.542387,46.772383,44.810358,14.994075,91.245527,-18.918213,12.054452,33.962796,-0.814890,3.954963
0.350000,11.498115,18.124302,36.776096,900.000000,44.964741,-34.260113,43.254863,50.648482,-26.321088,89.357478,-19.928776,11.343261,36.196733,-1.313110,4.238545
0.375000,12.481426,19.560437,35.123445,900.000000,43.218651,-73.119278,39.332422,57.445398,-66.106052,86.793963,-22.008240,10.769311,38.366582,-1.863316,4.507777
0.400000,13.372922,21.170912,32.567106,900.000000,41.374054,-107.830898,35.659868,64.418982,-102.253536,83.781058,-25.134231,9.318328,40.461109,-2.491671,4.740736
0.425000,14.201528,22.940259,29.246084,900.000000,39.435152,-136.426027,33.144212,70.773906,-132.840881,80.765405,-28.610516,6.179670,42.480244,-3.206934,4.895227
0.450000,15.028599,24.836154,25.342138,900.000000,37.406367,-157.282662,33.082841,75.835802,-156.157839,78.297511,-31.314477,1.123419,44.437681,-3.989796,4.923313
0.475000,15.961766,26.815097,21.074122,900.000000,35.292321,-169.217755,37.326683,79.157692,-170.720665,76.850962,-32.134373,-5.339795,46.358955,-4.793155,4.789818
0.500000,17.173521,28.829085,16.691681,900.000000,33.097834,-171.554309,48.470196,80.559526,-175.297631,76.633021,-30.422958,-12.089379,48.274781,-5.553729,4.487583
0.525000,18.925428,30.830465,12.467464,900.000000,30.827907,-164.159790,70.076304,80.055211,-168.968672,77.462391,-26.284807,-17.776297,50.211341,-6.210850,4.043176
0.550000,21.598243,32.771039,8.686508,900.000000,28.487714,-147.453635,106.912598,77.622937,-151.238243,78.783138,-20.581510,-21.309308,52.180919,-6.725387,3.510443
0.575000,25.723302,34.590812,5.630279,900.000000,26.082590,-122.383469,165.002364,72.790956,-122.249136,79.834722,-14.650634,-22.255452,54.176787,-7.091653,2.954057
0.600000,31.991296,36.192593,3.548542,900.000000,23.618015,-90.371346,250.719750,64.071217,-83.269509,79.922436,-9.844843,-21.000672,56.174848,-7.337774,2.429040
0.625000,41.162165,37.404966,2.601951,900.000000,21.099608,-53.233090,366.834748,48.494930,-37.863646,78.679040,-7.059891,-18.612042,58.141824,-7.514272,1.963739
0.650000,53.722070,37.958479,2.750696,900.000000,18.533109,-13.075293,502.396206,22.140529,5.949799,76.213162,-6.419501,-16.457456,60.047153,-7.674759,1.552303
0.675000,69.221622,37.540639,3.612268,900.000000,15.924367,27.824173,619.982065,-16.713597,34.462883,73.091797,-7.233003,-15.721645,61.874448,-7.855584,1.159262
0.700000,85.854022,35.978478,4.466522,900.000000,13.279330,67.145369,665.296037,-62.486469,34.170183,70.165162,-8.247293,-16.981659,63.628577,-8.061766,0.734720
0.725000,101.245438,33.408018,4.586821,900.000000,10.604024,102.657879,615.656602,-102.818385,4.811934,68.286382,-8.103658,-19.985208,65.335737,-8.264358,0.235090
0.750000,113.888117,30.204109,3.621583,900.000000,7.904549,132.347326,505.707171,-128.156369,-38.609516,68.004971,-5.835829,-23.721736,67.035861,-8.410254,-0.357953
0.775000,123.554880,26.764902,1.627632,900.000000,5.187058,154.529637,386.670515,-137.568275,-79.758011,69.331884,-1.235616,-26.778121,68.769158,-8.441144,-1.027406
0.800000,130.738898,23.390985,-1.126067,900.000000,2.457743,167.946564,287.360718,-134.956676,-110.147969,71.678480,5.046792,-27.853817,70.561120,-8.314974,-1.723752
0.825000,136.090897,20.283008,-4.317978,900.000000,-0.277174,171.837059,214.079984,-124.319067,-127.676436,74.028986,11.716432,-26.241009,72.411845,-8.022063,-2.379777
0.850000,140.172189,17.575252,-7.641457,900.000000,-3.011458,165.980441,163.251662,-108.310261,-132.939188,75.303709,17.290505,-22.089166,74.294438,-7.589801,-2.932006
0.875000,143.405416,15.361243,-10.823195,900.000000,-5.738879,150.708916,129.329102,-88.560365,-127.269518,74.765360,20.626327,-16.355373,76.163571,-7.074143,-3.340891
0.900000,146.096203,13.705426,-13.626497,900.000000,-8.453219,126.888730,107.631449,-66.232686,-112.132047,72.294585,21.320585,-10.461507,77.970936,-6.541128,-3.602428
0.925000,148.468236,12.645773,-15.852655,900.000000,-11.148292,95.871035,94.881324,-42.386102,-89.046330,68.427667,19.834137,-5.790254,79.681628,-6.045275,-3.747185
0.950000,150.692780,12.192151,-17.343405,900.000000,-13.817955,59.415248,88.981757,-18.144884,-59.630021,64.153665,17.304024,-3.204247,81.285469,-5.612674,-3.827291
0.975000,152.907450,12.323423,-17.983947,900.000000,-16.456122,19.589250,88.586800,5.250895,-25.621676,60.551271,15.122720,-2.756035,82.799251,-5.234606,-3.896192
1.000000,155.223418,12.985207,-17.705549,900.000000,-19.056781,-21.347909,92.638738,26.471344,11.135937,58.386504,14.440882,-3.689240,84.258914,-4.873584,-3.988423
1.025000,157.722257,14.090048,-16.487514,900.000000,-21.614004,-61.074150,99.953570,44.193659,48.721380,57.803857,15.761074,-4.728052,85.704010,-4.479557,-4.106624
1.050000,160.445758,15.522013,-14.359144,900.000000,-24.121963,-97.336083,108.940012,57.278577,85.134802,58.232778,18.756983,-4.545590,87.159830,-4.010632,-4.220264
1.075000,163.384370,17.147357,-11.402263,900.000000,-26.574940,-128.076822,117.544513,65.013751,118.275247,58.573120,22.387737,-2.242638,88.624158,-3.450939,-4.276330
1.100000,166.471343,18.831376,-7.753480,900.000000,-28.967345,-151.552660,123.478888,67.360794,145.951310,57.606326,25.274915,2.327359,90.064316,-2.819066,-4.218146
1.125000,169.588518,20.458715,-3.603346,900.000000,-31.293725,-166.431977,124.687018,65.093538,166.005362,54.465262,26.202989,8.502145,91.425947,-2.163991,-4.005592
1.150000,172.585264,21.951628,0.811188,900.000000,-33.548778,-171.870774,119.869845,59.716542,176.581383,48.966603,24.553149,15.050592,92.650112,-1.550163,-3.629327
1.175000,175.305516,23.280029,5.222610,900.000000,-35.727363,-167.560546,108.810080,53.136004,176.456856,41.676234,20.508583,20.621380,93.692018,-1.037448,-3.113793
1.200000,177.613603,24.459640,9.354654,900.000000,-37.824515,-153.745782,92.323478,47.184451,165.281753,33.691125,14.957772,24.224592,94.534296,-0.663504,-2.508178
1.225000,179.410755,25.539181,12.944864,900.000000,-39.835454,-131.210097,71.886064,43.181628,143.608423,26.228390,9.139843,25.558828,95.190006,-0.435008,-1.869207
1.250000,180.639999,26.581266,15.763026,900.000000,-41.755596,-101.231783,49.169785,41.683436,112.726468,20.179260,4.175578,25.063251,95.694488,-0.330618,-1.242626
1.275000,181.282988,27.642897,17.623511,900.000000,-43.580565,-65.511298,25.719555,42.465217,74.419422,15.797691,0.665244,23.686357,96.089430,-0.313987,-0.650467
1.300000,181.354512,28.760238,18.392614,900.000000,-45.306201,-26.074817,2.860938,44.693635,30.764108,12.647508,-1.497545,22.472705,96.405618,-0.351426,-0.088649
1.325000,180.898955,29.940478,17.993331,900.000000,-46.928571,14.840706,-18.222254,47.209599,-15.971317,9.831669,-3.030086,22.128907,96.651409,-0.427178,0.464573
1.350000,179.989654,31.161842,16.409682,900.000000,-48.443976,54.914420,-36.372053,48.854561,-63.345973,6.408483,-4.924986,22.728964,96.811621,-0.550303,1.032797
1.375000,178.729050,32.381447,13.691081,900.000000,-49.848964,91.873223,-50.424168,48.784193,-108.744053,1.825730,-8.006059,23.671377,96.857265,-0.750454,1.624582
1.400000,177.246092,33.549169,9.955290,900.000000,-51.140331,123.620703,-59.318325,46.708915,-149.431639,-3.796494,-12.542358,23.913896,96.762352,-1.064013,2.222429
1.425000,175.688129,34.624017,5.387011,900.000000,-52.315135,148.356045,-62.318493,42.993887,-182.731138,-9.647314,-18.068279,22.402964,96.521169,-1.515720,2.782503
1.450000,174.207404,35.588291,0.229376,900.000000,-53.370697,164.676189,-59.229008,38.570988,-206.305415,-14.490041,-23.493065,18.533017,96.158918,-2.103047,3.245829
1.475000,172.945502,36.455147,-5.232109,900.000000,-54.304611,171.655406,-50.476097,34.674244,-218.459374,-17.119331,-27.475359,12.455466,95.730935,-2.789931,3.557215
1.500000,172.020522,37.267186,-10.690346,900.000000,-55.114750,168.897814,-36.999193,32.481554,-218.329478,-16.838491,-28.924309,5.109240,95.309973,-3.513038,3.684946
1.525000,171.520160,38.086713,-15.837444,900.000000,-55.799265,156.559833,-20.014482,32.781058,-205.883954,-13.771032,-27.431079,-2.052119,94.965697,-4.198815,3.633643
1.550000,171.500592,38.980649,-20.381499,900.000000,-56.356598,135.341309,-0.782701,35.757436,-181.762200,-8.878733,-23.461683,-7.541227,94.743729,-4.785357,3.445113
1.575000,171.988342,40.004052,-24.057994,900.000000,-56.785478,106.445821,19.510004,40.936135,-147.059793,-3.671338,-18.235752,-10.347913,94.651945,-5.241251,3.186415
1.600000,172.981597,41.185928,-26.637296,900.000000,-57.084926,71.512407,39.730179,47.275029,-103.172078,0.284697,-13.337109,-10.294487,94.659063,-5.574679,2.929053
1.625000,174.448721,42.520272,-27.931408,900.000000,-57.254262,32.522595,58.684978,53.373755,-51.764489,1.881346,-10.196931,-8.106779,94.706096,-5.829602,2.726383
1.650000,176.324165,43.964523,-27.803350,900.000000,-57.293098,-8.311996,75.017745,57.770072,5.122344,0.834373,-9.622432,-5.175629,94.726956,-6.070163,2.596992
1.675000,178.504642,45.446654,-26.181143,900.000000,-57.201346,-48.675105,87.219074,59.285242,64.888274,-2.222796,-11.524100,-3.097107,94.671386,-6.358266,2.519565
1.700000,180.850251,46.880466,-23.075304,900.000000,-56.979216,-86.277217,93.824358,57.352445,124.233558,-5.952552,-14.940140,-3.150429,94.522572,-6.731769,2.440804
1.725000,183.194534,48.186133,-18.594573,900.000000,-56.627213,-118.985427,93.771318,52.226716,179.229225,-8.762398,-18.361441,-5.879843,94.303512,-7.190805,2.293808
1.750000,185.363558,49.310472,-12.951755,900.000000,-56.146140,-144.944427,86.760990,44.973542,225.712731,-9.334688,-20.245146,-10.915462,94.070145,-7.696934,2.020921
1.775000,187.198673,50.240523,-6.453176,900.000000,-55.537094,-162.681745,73.404563,37.202049,259.943169,-7.058702,-19.532574,-17.104906,93.893677,-8.185248,1.593299
1.800000,188.574747,51.006140,0.527921,900.000000,-54.801463,-171.191267,55.042992,30.624675,279.243868,-2.218274,-15.990170,-22.920511,93.838220,-8.585002,1.020286
1.825000,189.408300,51.671274,7.586004,900.000000,-53.940922,-169.990308,33.342099,26.605351,282.323331,4.135901,-10.254745,-26.991731,93.941618,-8.841371,0.345493
1.850000,189.655822,52.317312,14.315044,900.000000,-52.957435,-159.146990,9.900902,25.841509,269.161586,10.584203,-3.569110,-28.559535,94.206223,-8.930599,-0.368496
1.875000,189.307242,53.023308,20.330264,900.000000,-51.853242,-139.276378,-13.943202,28.239864,240.608797,15.850253,2.686734,-27.685630,94.602479,-8.863430,-1.060636
1.900000,188.380145,53.847531,25.279313,900.000000,-50.630860,-111.505592,-37.083904,32.968902,197.961965,19.228868,7.485744,-25.149880,95.083201,-8.676287,-1.689383
1.925000,186.918188,54.813634,28.847665,900.000000,-49.293076,-77.409876,-58.478279,38.644116,142.734081,20.774006,10.482351,-22.092006,95.602551,-8.414228,-2.241684
1.950000,184.993988,55.903902,30.765401,900.000000,-47.842938,-38.923240,-76.967996,43.610744,76.709442,21.190119,12.064969,-19.546126,96.132304,-8.112604,-2.730337
1.975000,182.713750,57.061329,30.822011,900.000000,-46.283752,1.771239,-91.209507,46.297063,2.264394,21.485022,13.126057,-18.043367,96.669430,-7.784452,-3.181421
2.000000,180.218686,58.201163,28.892471,900.000000,-44.619072,42.365248,-99.802587,45.593382,-77.181586,22.525247,14.649932,-17.424689,97.232561,-7.418204,-3.617038
2.025000,177.678015,59.230391,24.971206,900.000000,-42.852692,80.556174,-101.626841,41.169115,-156.850610,24.658644,17.278352,-16.931856,97.849027,-6.986245,-4.040334
2.050000,175.271631,60.070597,19.202017,900.000000,-40.988639,114.177711,-96.255339,33.608231,-230.767548,27.542573,21.013671,-15.542041,98.537591,-6.460903,-4.428886
2.075000,173.166686,60.677501,11.887215,900.000000,-39.031159,141.322748,-84.197784,24.276169,-292.592101,30.250450,25.173852,-12.415923,99.293853,-5.831557,-4.739284
2.100000,171.497099,61.051071,3.464706,900.000000,-36.984717,160.451534,-66.783491,14.942786,-336.900325,31.626582,28.628210,-7.285331,100.084517,-5.115852,-4.921417
2.125000,170.353571,61.233689,-5.542735,900.000000,-34.853975,170.479030,-45.741112,7.304718,-360.297641,30.753075,30.230695,-0.627649,100.853344,-4.360084,-4.937108
2.150000,169.785033,61.298175,-14.587495,900.000000,-32.643791,170.836444,-22.741527,2.579458,-361.790436,27.341583,29.279933,6.450523,101.536884,-3.628086,-4.775845
2.175000,169.806512,61.329963,-23.146025,900.000000,-30.359203,161.503503,0.859132,1.271518,-342.341180,21.892078,25.821527,12.585618,102.084186,-2.982548,-4.461205
2.200000,170.407166,61.407924,-30.746479,900.000000,-28.005416,143.009601,24.026160,3.118446,-304.018181,15.552799,20.671200,16.643693,102.473005,-2.465768,-4.045112
2.225000,171.554498,61.587395,-36.977879,900.000000,-25.587798,116.403765,45.893304,7.178824,-249.255984,9.733028,15.148152,18.132578,102.716331,-2.087064,-3.591798
2.250000,173.193752,61.888053,-41.491281,900.000000,-23.111857,83.195159,65.570169,12.026312,-180.536097,5.613744,10.620187,17.381773,102.856675,-1.821559,-3.157253
2.275000,175.243969,62.288767,-44.004792,900.000000,-20.583237,45.267475,82.008679,16.028552,-100.540409,3.733799,8.027100,15.423426,102.950020,-1.620882,-2.771668
2.300000,177.594116,62.730990,-44.320948,900.000000,-18.007702,4.772084,94.005867,17.688933,-12.646261,3.801068,7.550539,13.622612,103.045046,-1.432119,-2.431102
2.325000,180.103826,63.131041,-42.358149,900.000000,-15.391122,-35.993994,100.388419,16.002029,78.511951,4.801284,8.550199,13.192790,103.165079,-1.218364,-2.101283
2.350000,182.612448,63.399338,-38.187680,900.000000,-12.739462,-74.718384,100.344880,10.731908,166.818785,5.368054,9.796286,14.760797,103.299280,-0.973456,-1.732263
2.375000,184.956293,63.461944,-32.058016,900.000000,-10.058764,-109.204525,93.753778,2.504219,245.186563,4.280120,9.917475,18.127493,103.406283,-0.725519,-1.279075
2.400000,186.988822,63.278199,-24.386616,900.000000,-7.355140,-137.496257,81.301171,-7.349804,306.856003,0.911958,7.903762,22.318564,103.429082,-0.527925,-0.721111
2.425000,188.596137,62.849371,-15.712502,900.000000,-4.634751,-157.988791,64.292587,-17.153123,346.964548,-4.518921,3.487688,25.924855,103.316109,-0.440733,-0.072990
2.450000,189.703005,62.216593,-6.624121,900.000000,-1.903798,-169.519727,44.274718,-25.311094,363.535235,-11.005094,-2.734499,27.613823,103.040982,-0.509096,0.617356
2.475000,190.270212,61.449923,2.310647,900.000000,0.831495,-171.434996,22.688281,-30.666793,357.390727,-17.096965,-9.497028,26.619120,102.613557,-0.746521,1.282834
2.500000,190.287632,60.632212,10.591300,900.000000,3.564892,-163.625959,0.696796,-32.708457,331.226105,-21.419675,-15.310315,23.023733,102.078066,-1.129279,1.858427
2.525000,189.767550,59.841607,17.803751,900.000000,6.290163,-146.535568,-20.803264,-31.624218,288.498061,-23.162186,-18.990044,17.731429,101.499011,-1.604030,2.301713
2.550000,188.740935,59.135821,23.620401,900.000000,9.001098,-121.133240,-41.064619,-28.231420,232.665975,-22.355243,-20.069708,12.140586,100.940130,-2.105773,2.605227
2.575000,187.257287,58.540611,27.794258,900.000000,11.691516,-88.859873,-59.345900,-23.808386,166.954316,-19.839731,-18.946424,7.647037,100.444137,-2.579434,2.796403
2.600000,185.387071,58.044381,30.157437,900.000000,14.355286,-51.546107,-74.808642,-19.849215,94.527126,-16.946994,-16.714120,5.157748,100.020462,-2.997287,2.925347
2.625000,183.224422,57.600261,30.628643,900.000000,16.986336,-11.308492,-86.505982,-17.764803,18.848247,-15.017158,-14.756335,4.783905,99.645033,-3.366195,3.044945
2.650000,180.887041,57.135960,29.227920,900.000000,19.578669,29.570575,-93.495223,-18.572043,-56.028905,-14.925769,-14.250548,5.819232,99.271888,-3.722459,3.190425
2.675000,178.510535,56.569932,26.090872,900.000000,22.126377,68.772310,-95.060243,-22.641111,-125.481937,-16.774887,-15.751210,7.010193,98.852516,-4.116239,3.365680
2.700000,176.236571,55.830319,21.471284,900.000000,24.623652,104.073074,-90.958566,-29.584521,-184.783520,-19.855573,-18.988989,7.016700,98.356127,-4.590964,3.541098
2.725000,174.197540,54.871722,15.723618,900.000000,27.064803,133.470501,-81.561234,-38.343874,-229.906626,-22.903869,-22.962595,4.896442,97.783530,-5.165029,3.663509
2.750000,172.502690,53.685247,9.265775,900.000000,29.444265,155.297082,-67.793997,-47.459003,-258.313708,-24.561054,-26.300094,0.445058,97.169504,-5.822531,3.674635
2.775000,171.230032,52.299499,2.532608,900.000000,31.756615,168.314748,-50.906326,-55.429933,-269.326698,-23.865005,-27.756752,-5.728376,96.572879,-6.516450,3.531426
2.800000,170.425203,50.773111,-4.065551,900.000000,33.996582,171.785096,-32.193153,-61.055513,-263.926376,-20.588847,-26.658830,-12.423824,96.058158,-7.182921,3.220830
2.825000,170.105352,49.181509,-10.169826,900.000000,36.159061,165.511280,-12.794044,-63.664066,-244.170986,-15.302493,-23.126313,-18.289350,95.675595,-7.761078,2.763596
2.850000,170.264862,47.601344,-15.484206,900.000000,38.239123,149.849169,6.380415,-63.206628,-212.575189,-9.137933,-17.994938,-22.304414,95.447147,-8.210952,2.205986
2.875000,170.880292,46.095730,-19.776643,900.000000,40.232026,125.687163,24.617208,-60.224548,-171.697499,-3.354954,-12.475670,-24.119082,95.363273,-8.522844,1.603009
2.900000,171.913185,44.702747,-22.876611,900.000000,42.133230,94.395806,41.315701,-55.719306,-123.998690,1.120819,-7.690565,-24.123689,95.391294,-8.715108,0.999917
2.925000,173.310622,43.428923,-24.674086,900.000000,43.938399,57.750036,55.897477,-50.952960,-71.899033,4.012117,-4.264231,-23.233690,95.491596,-8.821713,0.419075
2.950000,175.004377,42.248772,-25.121914,900.000000,45.643419,17.828511,67.750215,-47.206063,-17.913085,5.741835,-2.122376,-22.484666,95.635142,-8.874773,-0.143042
2.975000,176.910262,41.110658,-24.240549,900.000000,47.244405,-23.104301,76.235402,-45.524533,35.254582,7.209238,-0.570014,-22.595928,95.815373,-8.889023,-0.707940
3.000000,178.929589,39.948201,-22.122050,900.000000,48.737707,-62.726568,80.773051,-46.498309,84.739958,9.382421,1.384410,-23.663681,96.049934,-8.854413,-1.299532
